Time,Voltage
0,95.22539674
0.00010001,102.1467435
0.00020002,107.2391796
0.00030003,110.7014336
0.00040004,112.7728802
0.00050005,113.7217032
0.00060006,113.8322704
0.00070007,113.3922989
0.00080008,112.6803886
0.00090009,111.9544732
0.0010001,111.4416856
0.00110011,111.33006
0.00120012,111.7623977
0.00130013,112.8325174
0.00140014,114.5839924
0.00150015,117.0113593
0.00160016,120.0636638
0.00170017,123.6501006
0.00180018,127.6474111
0.00190019,131.90862
0.0020002,136.27264
0.00210021,140.5742394
0.00220022,144.6538581
0.00230023,148.3667777
0.00240024,151.5911936
0.00250025,154.2347971
0.00260026,156.2395626
0.00270027,157.5845269
0.00280028,158.2864588
0.00290029,158.3984198
0.0030003,158.0063338
0.00310031,157.2237776
0.00320032,156.1852989
0.00330033,155.0386397
0.00340034,153.936296
0.00350035,153.0268786
0.00360036,152.4467433
0.00370037,152.3123444
0.00380038,152.7137239
0.00390039,153.7094883
0.0040004,155.3235434
0.00410041,157.543767
0.00420042,160.3226938
0.00430043,163.5801826
0.00440044,167.2079282
0.00450045,171.0755842
0.00460046,175.0381747
0.00470047,178.9444018
0.00480048,182.6454069
0.00490049,186.0035133
0.0050005,188.9004752
0.00510051,191.2447765
0.00520052,192.9775678
0.00530053,194.076896
0.00540054,194.5599606
0.00550055,194.4832342
0.00560056,193.9403879
0.00570057,193.058076
0.00580058,191.9897457
0.00590059,190.9077391
0.0060006,189.9940494
0.00610061,189.430168
0.00620062,189.3865113
0.00630063,190.0119531
0.00640064,191.4239885
0.00650065,193.7000407
0.00660066,196.8703754
0.00670067,200.9130185
0.00680068,205.7509872
0.00690069,211.2520391
0.0070007,217.2310272
0.00710071,223.4548285
0.00720072,229.6496928
0.00730073,235.510738
0.00740074,240.7132191
0.00750075,244.9251033
0.00760076,247.8204198
0.00770077,249.0928059
0.00780078,248.4686529
0.00790079,245.7192673
0.0080008,240.6714948
0.00810081,233.2163208
0.00820082,223.3150416
0.00830083,211.0027087
0.00840084,196.3886627
0.00850085,179.654104
0.00860086,161.0467743
0.00870087,140.8729542
0.00880088,119.4870974
0.00890089,97.27952975
0.0090009,74.66272311
0.00910091,52.05672143
0.00920092,29.87432846
0.00930093,8.506678755
0.00940094,-11.69020627
0.00950095,-30.40732115
0.00960096,-47.39255225
0.00970097,-62.45813335
0.00980098,-75.48539676
0.00990099,-86.42665736
0.010001,-95.30419496
0.01010101,-102.206429
0.01020102,-107.2815026
0.01030103,-110.7286054
0.01040104,-112.7874606
0.01050105,-113.7264773
0.01060106,-113.83012
0.01070107,-113.3860753
0.01080108,-112.6727916
0.01090109,-111.9479421
0.0110011,-111.4383065
0.01110111,-111.331493
0.01120112,-111.7698276
0.01130113,-112.8466287
0.01140114,-114.6049691
0.01150115,-117.0389094
0.01160116,-120.0970654
0.01170117,-123.6882683
0.01180118,-127.688977
0.01190119,-131.9520265
0.0120012,-136.3162388
0.01210121,-140.6163908
0.01220122,-144.6930269
0.01230123,-148.4016202
0.01240124,-151.6206311
0.01250125,-154.2580733
0.01260126,-156.2562814
0.01270127,-157.5946701
0.01280128,-158.2903814
0.01290129,-158.3968256
0.0130013,-158.0002318
0.01310131,-157.2144216
0.01320132,-156.1741148
0.01330133,-155.0271431
0.01340134,-153.9260067
0.01350135,-153.0192344
0.01360136,-152.443019
0.01370137,-152.313581
0.01380138,-152.72067
0.01390139,-153.7225585
0.0140014,-155.3427955
0.01410141,-157.5688983
0.01420142,-160.3530587
0.01430143,-163.6148285
0.01440144,-167.2456493
0.01450145,-171.11499
0.01460146,-175.077769
0.01470147,-178.9826693
0.01480148,-182.6809011
0.01490149,-186.0349425
0.0150015,-188.9267808
0.01510151,-191.2651996
0.01520152,-192.9917009
0.01530153,-194.0847153
0.01540154,-194.561838
0.01550155,-194.4799276
0.01560156,-193.9330092
0.01570157,-193.0480391
0.01580158,-191.9786948
0.01590159,-190.8974626
0.0160016,-189.9863823
0.01610161,-189.4268869
0.01620162,-189.3892288
0.01630163,-190.0220149
0.01640164,-191.4423805
0.01650165,-193.7273094
0.01660166,-196.9065661
0.01670167,-200.9576362
0.01680168,-205.8029814
0.01690169,-211.309814
0.0170017,-217.2924787
0.01710171,-223.5174062
0.01720172,-229.7104844
0.01730173,-235.5665744
0.01740174,-240.7607942
0.01750175,-244.9611047
0.01760176,-247.8416646
0.01770177,-249.0963744
0.01780178,-248.4520168
0.01790179,-245.6804039
0.0180018,-240.6089842
0.01810181,-233.1294196
0.01820182,-223.2037321
0.01830183,-210.867718
0.01840184,-196.2314538
0.01850185,-179.476836
0.01860186,-160.8522357
0.01870187,-140.6644701
0.01880188,-119.2684154
0.01890189,-97.05468875
0.0190019,-74.43591076
0.01910191,-51.83212616
0.01920192,-29.6559923
0.01930193,-8.298357022
0.01940194,11.88517251
0.01950195,30.5861146
0.01960196,47.55296649
0.01970197,62.59863411
0.01980198,75.60515514
0.01990199,86.52555392
0.020002,95.38279514
0.02010201,102.2659313
0.02020202,107.3236624
0.02030203,110.7556381
0.02040204,112.8019289
0.02050205,113.7311678
0.02060206,113.8279148
0.02070207,113.3798249
0.02080208,112.6651938
0.02090209,111.9414329
0.0210021,111.434968
0.02110211,111.3329808
0.02120212,111.7773218
0.02130213,112.8608085
0.02140214,114.6260138
0.02150215,117.0665223
0.02160216,120.1305206
0.02170217,123.7264771
0.02180218,127.7305692
0.02190219,131.9954432
0.0220022,136.3598311
0.02210221,140.6585197
0.02220222,144.7321587
0.02230223,148.4364134
0.02240224,151.6500101
0.02250225,154.2812852
0.02260226,156.272934
0.02270227,157.6047487
0.02280228,158.2942447
0.02290229,158.3951809
0.0230023,157.9940907
0.02310231,157.2050401
0.02320232,156.1629199
0.02330233,155.0156512
0.02340234,153.915737
0.02350235,153.0116233
0.02360236,152.4393397
0.02370237,152.3148715
0.02380238,152.7276758
0.02390239,153.7356909
0.0240024,155.3621084
0.02410241,157.5940858
0.02420242,160.3834717
0.02430243,163.6495115
0.02440244,167.2833944
0.02450245,171.1544051
0.02460246,175.1173575
0.02470247,179.020916
0.02480248,182.7163607
0.02490249,186.0663253
0.0250025,188.9530307
0.02510251,191.2855613
0.02520252,193.0057704
0.02530253,194.0924726
0.02540254,194.5636591
0.02550255,194.4765741
0.02560256,193.9255966
0.02570257,193.0379836
0.02580258,191.9676426
0.02590259,190.8872032
0.0260026,189.9787505
0.02610261,189.4236582
0.02620262,189.3920135
0.02630263,190.0321558
0.02640264,191.4608594
0.02650265,193.7546679
0.02660266,196.9428444
0.02670267,201.0023339
0.02680268,205.8550421
0.02690269,211.3676369
0.0270027,217.3539548
0.02710271,223.5799809
0.02720272,229.7712425
0.02730273,235.6223446
0.02740274,240.8082698
0.02750275,244.9969741
0.02760276,247.8627465
0.02770277,249.0997527
0.02780278,248.4351675
0.02790279,245.64131
0.0280028,240.5462321
0.02810281,233.0422733
0.02820282,223.0921808
0.02830283,210.7324967
0.02840284,196.0740324
0.02850285,179.2993804
0.02860286,160.6575403
0.02870287,140.4558648
0.02880288,119.0496515
0.02890289,96.82980718
0.0290029,74.20909996
0.02910291,51.60757384
0.02920292,29.43773829
0.02930293,8.090153094
0.02940294,-12.07999001
0.02950295,-30.76473409
0.02960296,-47.71318803
0.02970297,-62.73893037
0.02980298,-75.72470432
0.02990299,-86.62424361
0.030003,-95.46119742
0.03010301,-102.3252507
0.03020302,-107.3656593
0.03030303,-110.782532
0.03040304,-112.8162854
0.03050305,-113.735775
0.03060306,-113.8256553
0.03070307,-113.373548
0.03080308,-112.6575952
0.03090309,-111.9349458
0.0310031,-111.4316703
0.03110311,-111.3345238
0.03120312,-111.7848803
0.03130313,-112.875057
0.03140314,-114.6471265
0.03150315,-117.0941978
0.03160316,-120.1640293
0.03170317,-123.7647269
0.03180318,-127.7721876
0.03190319,-132.0388699
0.0320032,-136.4034168
0.03210321,-140.700626
0.03220322,-144.7712534
0.03230323,-148.4711573
0.03240324,-151.6793306
0.03250325,-154.3044328
0.03260326,-156.2895202
0.03270327,-157.6147628
0.03280328,-158.2980489
0.03290329,-158.3934858
0.0330033,-157.9879106
0.03310331,-157.1956331
0.03320332,-156.1517145
0.03330333,-155.004164
0.03340334,-153.905487
0.03350335,-153.0040456
0.03360336,-152.4357053
0.03370337,-152.3162159
0.03380338,-152.7347415
0.03390339,-153.7488854
0.0340034,-155.3814822
0.03410341,-157.6193292
0.03420342,-160.4139325
0.03430343,-163.6842315
0.03440344,-167.3211634
0.03450345,-171.1938295
0.03460346,-175.1569401
0.03470347,-179.0591418
0.03480348,-182.7517856
0.03490349,-186.0976614
0.0350035,-188.979225
0.03510351,-191.3058614
0.03520352,-193.0197762
0.03530353,-194.1001681
0.03540354,-194.5654242
0.03550355,-194.4731741
0.03560356,-193.91815
0.03570357,-193.0279096
0.03580358,-191.9565893
0.03590359,-190.876961
0.0360036,-189.9711541
0.03610361,-189.420482
0.03620362,-189.3948657
0.03630363,-190.0423759
0.03640364,-191.4794253
0.03650365,-193.7821163
0.03660366,-196.9792103
0.03670367,-201.0471113
0.03680368,-205.9071693
0.03690369,-211.4255075
0.0370037,-217.4154552
0.03710371,-223.6425524
0.03720372,-229.8319667
0.03730373,-235.6780484
0.03740374,-240.8556457
0.03750375,-245.032711
0.03760376,-247.8836652
0.03770377,-249.1029404
0.03780378,-248.4181048
0.03790379,-245.6019855
0.0380038,-240.4832385
0.03810381,-232.9548816
0.03820382,-222.9803881
0.03830383,-210.5970449
0.03840384,-195.9163988
0.03850385,-179.1217377
0.03860386,-160.4626886
0.03870387,-140.2471389
0.03880388,-118.830806
0.03890389,-96.60488547
0.0390039,-73.98229114
0.03910391,-51.38306487
0.03920392,-29.21956679
0.03930393,-7.882067307
0.03940394,12.27465849
0.03950395,30.94317942
0.03960396,47.87321672
0.03970397,62.87902203
0.03980398,75.84404429
0.03990399,86.72272649
0.040004,95.5394019
0.04010401,102.3843872
0.04020402,107.4074935
0.04030403,110.8092874
0.04040404,112.8305304
0.04050405,113.7402993
0.04060406,113.8233417
0.04070407,113.367245
0.04080408,112.6499963
0.04090409,111.9284809
0.0410041,111.4284137
0.04110411,111.3361219
0.04120412,111.7925032
0.04130413,112.889374
0.04140414,114.6683069
0.04150415,117.1219359
0.04160416,120.1975913
0.04170417,123.8030176
0.04180418,127.813832
0.04190419,132.0823064
0.0420042,136.4469957
0.04210421,140.7427095
0.04220422,144.8103108
0.04230423,148.5058518
0.04240424,151.7085924
0.04250425,154.3275162
0.04260426,156.3060402
0.04270427,157.6247123
0.04280428,158.3017941
0.04290429,158.3917403
0.0430043,157.9816917
0.04310431,157.1862009
0.04320432,156.1404986
0.04330433,154.9926818
0.04340434,153.8952568
0.04350435,152.9965014
0.04360436,152.432116
0.04370437,152.3176145
0.04380438,152.741867
0.04390439,153.7621421
0.0440044,155.4009168
0.04410441,157.6446286
0.04420442,160.4444412
0.04430443,163.7189883
0.04440444,167.358956
0.04450445,171.233263
0.04460446,175.1965165
0.04470447,179.0973465
0.04480448,182.7871757
0.04490449,186.128951
0.0450045,189.0053634
0.04510451,191.3260999
0.04520452,193.0337182
0.04530453,194.1078017
0.04540454,194.5671331
0.04550455,194.4697274
0.04560456,193.9106697
0.04570457,193.0178174
0.04580458,191.9455351
0.04590459,190.8667362
0.0460046,189.9635933
0.04610461,189.4173586
0.04620462,189.3977855
0.04630463,190.0526753
0.04640464,191.498078
0.04650465,193.8096545
0.04660466,197.0156638
0.04670467,201.0919684
0.04680468,205.9593628
0.04690469,211.4834257
0.0470047,217.4769797
0.04710471,223.7051204
0.04720472,229.8926567
0.04730473,235.7336854
0.04740474,240.9029214
0.04750475,245.0683151
0.04760476,247.9044205
0.04770477,249.1059373
0.04780478,248.4008285
0.04790479,245.5624301
0.0480048,240.4200034
0.04810481,232.8672448
0.04820482,222.8683538
0.04830483,210.4613628
0.04840484,195.7585533
0.04850485,178.943908
0.04860486,160.2676808
0.04870487,140.0382925
0.04880488,118.6118794
0.04890489,96.37992403
0.0490049,73.75548473
0.04910491,51.15859966
0.04920492,29.0014782
0.04930493,7.674099993
0.04940494,-12.46917768
0.04950495,-31.12145036
0.04960496,-48.0330524
0.04970497,-63.01890903
0.04980498,-75.96317504
0.04990499,-86.82100262
0.050005001,-95.61740872
0.050105011,-102.4433412
0.050205021,-107.4491653
0.050305031,-110.8359045
0.050405041,-112.844664
0.050505051,-113.7447408
0.050605061,-113.8209742
0.050705071,-113.360916
0.050805081,-112.6423972
0.050905091,-111.9220385
0.051005101,-111.4251982
0.051105111,-111.3377752
0.051205121,-111.8001906
0.051305131,-112.9037597
0.051405141,-114.6895553
0.051505151,-117.1497366
0.051605161,-120.2312066
0.051705171,-123.841349
0.051805181,-127.8555023
0.051905191,-132.1257525
0.052005201,-136.4905677
0.052105211,-140.78477
0.052205221,-144.8493308
0.052305231,-148.5404968
0.052405241,-151.7377957
0.052505251,-154.3505351
0.052605261,-156.3224939
0.052705271,-157.6345974
0.052805281,-158.3054803
0.052905291,-158.3899446
0.053005301,-157.9754341
0.053105311,-157.1767435
0.053205321,-156.1292725
0.053305331,-154.9812046
0.053405341,-153.8850465
0.053505351,-152.9889908
0.053605361,-152.428572
0.053705371,-152.3190671
0.053805381,-152.7490523
0.053905391,-153.7754609
0.054005401,-155.4204122
0.054105411,-157.6699839
0.054205421,-160.4749975
0.054305431,-163.7537819
0.054405441,-167.3967722
0.054505451,-171.2727055
0.054605461,-175.2360867
0.054705471,-179.1355301
0.054805481,-182.8225308
0.054905491,-186.1601938
0.055005501,-189.0314461
0.055105511,-191.3462768
0.055205521,-193.0475966
0.055305531,-194.1153735
0.055405541,-194.5687861
0.055505551,-194.4662343
0.055605561,-193.9031558
0.055705571,-193.007707
0.055805581,-191.9344802
0.055905591,-190.856529
0.056005601,-189.9560683
0.056105611,-189.4142879
0.056205621,-189.4007729
0.056305631,-190.0630541
0.056405641,-191.5168178
0.056505651,-193.8372826
0.056605661,-197.0522047
0.056705671,-201.136905
0.056805681,-206.0116223
0.056905691,-211.5413913
0.057005701,-217.538528
0.057105711,-223.7676846
0.057205721,-229.9533122
0.057305731,-235.7892552
0.057405741,-240.9500967
0.057505751,-245.1037861
0.057605761,-247.9250121
0.057705771,-249.1087432
0.057805781,-248.3833384
0.057905791,-245.5226438
0.058005801,-240.3565266
0.058105811,-232.7793627
0.058205821,-222.756078
0.058305831,-210.3254505
0.058405841,-195.6004961
0.058505851,-178.7658917
0.058605861,-160.0725172
0.058705871,-139.8293261
0.058805881,-118.392872
0.058905891,-96.15492328
0.059005901,-73.52868114
0.059105911,-50.93417861
0.059205921,-28.78347288
0.059305931,-7.466251488
0.059405941,12.66354728
0.059505951,31.29954669
0.059605961,48.19269494
0.059705971,63.15859126
0.059805981,76.08209656
0.059905991,86.91907205
0.060006001,95.695218
0.060106011,102.5021127
0.060206021,107.4906748
0.060306031,110.8623835
0.060406041,112.8586867
0.060506051,113.7491
0.060606061,113.8185532
0.060706071,113.3545613
0.060806081,112.6347982
0.060906091,111.9156188
0.061006101,111.422024
0.061106111,111.339484
0.061206121,111.8079425
0.061306131,112.918214
0.061406141,114.7108714
0.061506151,117.1775997
0.061606161,120.264875
0.061706171,123.879721
0.061806181,127.8971983
0.061906191,132.1692081
0.062006201,136.5341326
0.062106211,140.8268074
0.062206221,144.8883133
0.062306231,148.5750922
0.062406241,151.7669401
0.062506251,154.3734897
0.062606261,156.3388812
0.062706271,157.6444181
0.062806281,158.3091076
0.062906291,158.3880987
0.063006301,157.9691378
0.063106311,157.1672612
0.063206321,156.1180364
0.063306331,154.9697327
0.063406341,153.8748564
0.063506351,152.981514
0.063606361,152.4250732
0.063706371,152.320574
0.063806381,152.7562977
0.063906391,153.7888419
0.064006401,155.4399684
0.064106411,157.695395
0.064206421,160.5056015
0.064306431,163.788612
0.064406441,167.4346118
0.064506451,171.3121567
0.064606461,175.2756504
0.064706471,179.1736923
0.064806481,182.8578507
0.064906491,186.1913897
0.065006501,189.0574728
0.065106511,191.3663921
0.065206521,193.0614114
0.065306531,194.1228836
0.065406541,194.5703832
0.065506551,194.4626949
0.065606561,193.8956084
0.065706571,192.9975788
0.065806581,191.9234247
0.065906591,190.8463395
0.066006601,189.9485792
0.066106611,189.4112703
0.066206621,189.4038283
0.066306631,190.0735124
0.066406641,191.5356447
0.066506651,193.8650007
0.066606661,197.0888331
0.066706671,201.1819212
0.066806681,206.0639479
0.066906691,211.5994039
0.067006701,217.6000998
0.067106711,223.8302447
0.067206721,230.013933
0.067306731,235.8447576
0.067406741,240.9971713
0.067506751,245.1391236
0.067606761,247.9454396
0.067706771,249.1113578
0.067806781,248.3656343
0.067906791,245.4826264
0.068006801,240.2928082
0.068106811,232.6912354
0.068206821,222.6435609
0.068306831,210.1893082
0.068406841,195.4422273
0.068506851,178.587689
0.068606861,159.8771983
0.068706871,139.6202402
0.068806881,118.1737843
0.068906891,95.92988364
0.069006901,73.30188078
0.069106911,50.70980213
0.069206921,28.56555121
0.069306931,7.258522123
0.069406941,-12.85776703
0.069506951,-31.4774682
0.069606961,-48.35214416
0.069706971,-63.29806867
0.069806981,-76.20080884
0.069906991,-87.01693485
0.070007001,-95.77282985
0.070107011,-102.560702
0.070207021,-107.5320223
0.070307031,-110.8887248
0.070407041,-112.8725986
0.070507051,-113.753377
0.070607061,-113.8160789
0.070707071,-113.3481812
0.070807081,-112.6271995
0.070907091,-111.9092219
0.071007101,-111.4188913
0.071107111,-111.3412483
0.071207121,-111.815759
0.071307131,-112.9327369
0.071407141,-114.7322554
0.071507151,-117.2055253
0.071607161,-120.2985965
0.071707171,-123.9181334
0.071807181,-127.9389199
0.071907191,-132.2126731
0.072007201,-136.5776902
0.072107211,-140.8688216
0.072207221,-144.9272581
0.072307231,-148.6096378
0.072407241,-151.7960258
0.072507251,-154.3963799
0.072607261,-156.3552023
0.072707271,-157.6541744
0.072807281,-158.312676
0.072907291,-158.3862029
0.073007301,-157.9628031
0.073107311,-157.157754
0.073207321,-156.1067902
0.073307331,-154.9582661
0.073407341,-153.8646866
0.073507351,-152.974071
0.073607361,-152.4216199
0.073707371,-152.3221352
0.073807381,-152.763603
0.073907391,-153.802285
0.074007401,-155.4595853
0.074107411,-157.7208619
0.074207421,-160.536253
0.074307431,-163.8234786
0.074407441,-167.4724747
0.074507451,-171.3516166
0.074607461,-175.3152076
0.074707471,-179.2118331
0.074807481,-182.8931355
0.074907491,-186.2225386
0.075007501,-189.0834435
0.075107511,-191.3864456
0.075207521,-193.0751624
0.075307531,-194.1303319
0.075407541,-194.5719244
0.075507551,-194.4591093
0.075607561,-193.8880278
0.075707571,-192.9874327
0.075807581,-191.9123689
0.075907591,-190.8361679
0.076007601,-189.9411263
0.076107611,-189.4083059
0.076207621,-189.4069516
0.076307631,-190.0840502
0.076407641,-191.5545586
0.076507651,-193.8928086
0.076607661,-197.1255489
0.076707671,-201.2270167
0.076807681,-206.1163392
0.076907691,-211.6574636
0.077007701,-217.6616949
0.077107711,-223.8928004
0.077207721,-230.0745186
0.077307731,-235.9001923
0.077407741,-241.0441447
0.077507751,-245.1743275
0.077607761,-247.9657028
0.077707771,-249.1137808
0.077807781,-248.347716
0.077907791,-245.4423778
0.078007801,-240.228848
0.078107811,-232.6028628
0.078207821,-222.5308026
0.078307831,-210.052936
0.078407841,-195.2837473
0.078507851,-178.4093002
0.078607861,-159.6817244
0.078707871,-139.4110349
0.078807881,-117.9546167
0.078907891,-95.70480554
0.079007901,-73.07508409
0.079107911,-50.48547062
0.079207921,-28.34771356
0.079307931,-7.050912232
0.079407941,13.05183663
0.079507951,31.65521466
0.079607961,48.51139993
0.079707971,63.43734116
0.079807981,76.31931188
0.079907991,87.11459107
0.080008001,95.8502444
0.080108011,102.6191091
0.080208021,107.573208
0.080308031,110.9149286
0.080408041,112.8864001
0.080508051,113.7575722
0.080608061,113.8135516
0.080708071,113.341776
0.080808081,112.6196013
0.080908091,111.9028482
0.081008101,111.4158002
0.081108111,111.3430682
0.081208121,111.8236402
0.081308131,112.9473285
0.081408141,114.7537071
0.081508151,117.2335131
0.081608161,120.3323708
0.081708171,123.9565862
0.081808181,127.9806669
0.081908191,132.2561472
0.082008201,136.6212403
0.082108211,140.9108124
0.082208221,144.9661651
0.082308231,148.6441335
0.082408241,151.8250525
0.082508251,154.4192055
0.082608261,156.371457
0.082708271,157.6638663
0.082808281,158.3161856
0.082908291,158.3842571
0.083008301,157.9564301
0.083108311,157.1482221
0.083208321,156.0955343
0.083308331,154.9468051
0.083408341,153.8545371
0.083508351,152.966662
0.083608361,152.4182121
0.083708371,152.3237508
0.083808381,152.7709683
0.083908391,153.8157903
0.084008401,155.4792629
0.084108411,157.7463844
0.084208421,160.5669518
0.084308431,163.8583816
